Copper (OFHC) (UNS C10100/ C10200) - EC (10^-6/K) -   Equation Range: 4 to 300 K  Properties Data from NIST Cryogenic Material Property Database
Temperature,Lower Property Value,Recommended Property Value,Upper Property Value
4,0.0020525667037483803,0.0022806296708315337,0.002508692637914687
5,0.004909131668523255,0.005454590742803616,0.006000049817083978
6,0.008319384531558503,0.009243760590620558,0.010168136649682614
7,0.012285554313900873,0.013650615904334303,0.015015677494767735
8,0.017038533732099504,0.018931704146777226,0.020824874561454952
9,0.022860133036753435,0.025400147818614927,0.027940162600476423
10,0.030042973135526636,0.03338108126169626,0.03671918938786589
11,0.03888639743898212,0.043207108265535685,0.04752781909208926
12,0.049697215082728154,0.055219127869697945,0.060741040656667744
13,0.06278894336185266,0.06976549262428074,0.07674204188670881
14,0.0784790941497743,0.08719899349974923,0.09591889284972416
15,0.09708509277322272,0.10787232530358079,0.11865955783393888
16,0.11891944124156675,0.13213271249062972,0.1453459837396927
17,0.1442846043650446,0.16031622707227175,0.17634784977949894
18,0.17346797301650385,0.19274219224055983,0.21201641146461583
19,0.20673716191742958,0.22970795768603286,0.25267875345463614
20,0.24433582363900128,0.2714842484877792,0.29863267333655713
21,0.28648009947874176,0.31831122164304637,0.35014234380735104
22,0.3333557776527094,0.37039530850301045,0.40743483935331154
23,0.3851161878697202,0.4279068754108002,0.47069756295188026
24,0.4418808278045621,0.49097869756062457,0.5400765673166871
25,0.5037346905883545,0.5597052117648383,0.6156757329413223
26,0.5707282425713605,0.634142491745956,0.6975567409205518
27,0.642877986623014,0.7143088740255711,0.7857397614281283
28,0.7201675373924898,0.800186152658322,0.8802047679241544
29,0.80254913048452,0.8917212560939112,0.9808933817033024
30,0.8899454866309401,0.9888283184788222,1.0877111503267045
31,0.982251953922592,1.091391059913991,1.2005301659053904
32,1.0793388552874368,1.1992653947638185,1.3191919342402005
33,1.1810539740774677,1.3122821934194084,1.4435104127613494
34,1.2872251172812856,1.4302501303125394,1.5732751433437935
35,1.397662703096154,1.5529585589957267,1.7082544148952994
36,1.5121623270038917,1.6801803633376575,1.8481983996714235
37,1.630507267783599,1.8116747419817767,1.9928422161799546
38,1.7524709019041504,1.9471898910046115,2.1419088801050727
39,1.8778190012700535,2.086465556966726,2.295112112663399
40,2.0063118952653913,2.229235439183768,2.4521589831021453
41,2.1377064834045956,2.375229426005106,2.6127523686056167
42,2.271758089605501,2.524175655117223,2.776593220628946
43,2.4082221531982118,2.675802392442457,2.943382631686703
44,2.546855755224534,2.8298397280272596,3.1128237008299857
45,2.6874189814887086,2.9860210905430096,3.284623199597311
46,2.829676126168177,3.1440845846313077,3.458493043094439
47,2.973396741648809,3.303774157387566,3.6341515731263225
48,3.1183565417085357,3.464840601898373,3.811324662088211
49,3.2643381662200075,3.6270424069111193,3.9897466476022316
50,3.6006391393996497,3.7901464625259473,3.979653785652245
51,3.7562322006943414,3.9539286323098333,4.151625063925325
52,3.9122654923680495,4.118174202492684,4.324082912617318
53,4.068544307938615,4.2826782188827535,4.496812129826892
54,4.22488343597306,4.447245722076905,4.66960800818075
55,4.381107296588628,4.611691891145925,4.842276485703221
56,4.537050000421486,4.775842105706827,5.014634210992169
57,4.692555338945485,4.939531935732089,5.186508532518693
58,4.847476714534497,5.102607067931049,5.3577374213276014
59,5.0016770181909225,5.264923177043077,5.528169335895231
60,5.1550284622116385,5.426345749696462,5.697663037181285
61,5.307412374594551,5.586749867994264,5.866087361393977
62,5.458718961315313,5.746019959279277,6.033320957243241
63,5.608847042218754,5.904049518125004,6.199251994031254
64,5.757703765552379,6.06074080584461,6.36377784613684
65,5.905204305829326,6.216004532451922,6.526804759074519
66,6.051271549097922,6.369759525366233,6.688247501634545
67,6.195835769328799,6.521932388767157,6.848029008205515
68,6.338834299173303,6.67245715702453,7.0060800148757565
69,6.48021119790949,6.821274945167885,7.16233869242628
70,6.619916919163039,6.9683335991189885,7.316750279074938
71,6.757907980455436,7.113587347847828,7.469266715240219
72,6.894146636516686,7.256996459491249,7.6198462824658115
73,7.028600557910688,7.398526903063883,7.768453248217077
74,7.161242516305819,7.53815001716402,7.915057518022222
75,7.292050077488344,7.675842186829836,8.059634296171328
76,7.421005303013779,7.811584529488188,8.202163755962598
77,7.548094461229695,7.9453625907681005,8.342630720306506
78,7.673307748207757,8.077166050745008,8.481024353282258
79,7.796639018985691,8.20698844103757,8.61733786308945
80,7.918085529477388,8.334826873134093,8.751568216790798
81,8.037647689123954,8.460681778025215,8.883715866926476
82,8.155328824442611,8.584556657308012,9.013784490173412
83,8.271134953475162,8.706457845763328,9.141780738051494
84,8.385074571017649,8.826394285281737,9.267713999545824
85,8.497158444569493,8.94437731007315,9.391596175576808
86,8.607399420741434,9.06042044288572,9.513441465030006
87,8.71581224200253,9.174539202107926,9.633266162213323
88,8.822413373395381,9.28675091936356,9.751088465331737
89,8.92722083905391,9.397074567425168,9.866928295796427
90,9.030254068111304,9.5055305980119,9.980807127912495
91,9.131533749769691,9.612140789231255,10.092747828692819
92,9.231081697125585,9.716928102237459,10.202774507349332
93,9.328920719452345,9.819916546791942,10.31091237413154
94,9.425074502578365,9.921131055345647,10.417187608112929
95,9.519567497008138,10.020597365271724,10.52162723353531
96,9.612424813459057,10.118341908904272,10.624259004349486
97,9.703672125436025,10.21439171098529,10.725111296534553
98,9.793335578546923,10.308774293207287,10.824213007867652
99,9.8814417061799,10.401517585452526,10.921593464725152
100,9.968017351253328,10.492649843424557,11.017282335595786
101,10.053089593698722,10.582199572314446,11.11130955093017
102,10.136685683379993,10.670195456189466,11.20370522899894
103,10.218832978138197,10.75666629277705,11.294499607415903
104,10.29955888671358,10.841640933382717,11.383722980051854
105,10.378890816160268,10.925148227537125,11.471405638913982
106,10.456856123659483,11.00721697227314,11.557577820886797
107,10.533482072299742,11.087875865578678,11.642269658857613
108,10.608795790728788,11.16715346392504,11.725511137121291
109,10.682824236251712,11.245078143422855,11.807332050593999
110,10.755594161473613,11.321678064709067,11.88776196794452
111,10.827132083841082,11.39698114088535,11.966830197929617
112,10.897464258300138,11.471015008736988,12.044565759173837
113,10.966616652595809,11.54380700273243,12.120997352869052
114,11.034614925136854,11.615384131723005,12.196153338309156
115,11.10148440531824,11.685773058229728,12.270061711141215
116,11.167250075934675,11.755000079931238,12.3427500839278
117,11.231936557788314,11.823091113461384,12.414245669134454
118,11.29556809614329,11.890071680150832,12.484575264158375
119,11.358168548984159,11.955966893667537,12.553765238350914
120,11.419761376925251,12.020801449395002,12.621841521864752
121,11.480369634678247,12.084599615450788,12.688829596223329
122,11.54001596391257,12.147385225171126,12.754754486429682
123,11.598722587417226,12.209181670965503,12.81964075451378
124,11.65651130450458,12.270011899478506,12.883512494452432
125,11.713403487487497,12.329898407881576,12.946393328275654
126,11.76942007923615,12.38886324130121,13.008306403366271
127,11.824581591646174,12.446927991206499,13.069274390766823
128,11.878908104927687,12.504113794660723,13.12931948439376
129,11.932419267791422,12.560441334517288,13.188463401243153
130,11.985134298251715,12.615930840264964,13.246727382278213
131,12.037071985143523,12.670602089624762,13.304132194106
132,12.088250690225578,12.724474410763767,13.360698131301955
133,12.138688350849288,12.777566685104514,13.41644501935974
134,12.18840248308626,12.829897350617117,13.471392218147972
135,12.23741018528743,12.881484405565717,13.525558625844003
136,12.285728142098549,12.932345412735314,13.57896268337208
137,12.333372628837681,12.982497504039666,13.63162237924165
138,12.380359516064896,13.03195738533147,13.683555254598044
139,12.426704274593746,13.080741341677628,13.73477840876151
140,12.472421980694483,13.128865242836298,13.785308504978113
141,12.5175273214344,13.176344548878317,13.835161776322234
142,12.562034600374574,13.223194316183763,13.884354031992952
143,12.605957743279705,13.26942920345232,13.932900663624936
144,12.649310303986674,13.31506347788071,13.980816651774745
145,12.692105470563074,13.360111021645341,14.028116572727608
146,12.734356071305047,13.40458533821584,14.074814605126633
147,12.776074580931727,13.448499558875502,14.120924536819278
148,12.81727312697206,13.491866449444274,14.166459771916488
149,12.857963495894824,13.534698416731393,14.211433337567962
150,12.898157139591866,13.57700751535986,14.255857891127853
151,12.937865181628482,13.61880545434577,14.299745727063058
152,12.97709842360688,13.660103603796715,14.343108783986551
153,13.015867351562623,13.700913001644867,14.385958651727112
154,13.054182142208683,13.741244360219667,14.428306578230652
155,13.09205266931735,13.781108072965633,14.470163476613916
156,13.129488509908052,13.820514220955845,14.511539932003638
157,13.166498950485376,13.859472579458291,14.552446208431206
158,13.203092993258881,13.897992624483033,14.592892255707184
159,13.239279362186657,13.93608353914385,14.632887716101042
160,13.275066509034056,13.97375422003585,14.672441931037644
161,13.310462619392482,14.011013283571033,14.711563947749585
162,13.345475618571239,14.047869072180253,14.750262525789267
163,13.380113177436442,14.084329660459414,14.788546143482385
164,13.414382718180903,14.120402861243056,14.826423004305209
165,13.448291419981075,14.156096231559028,14.86390104313698
166,13.48184622459103,14.191417078516874,14.90098793244272
167,13.515053841934593,14.22637246519431,14.937691088454025
168,13.547920755384135,14.260969216193827,14.974017677003518
169,13.58045322720843,14.295213923377295,15.00997461954616
170,13.612657303800608,14.329112951369062,15.045568598937516
171,13.64453882082455,14.362672442973212,15.080806065121873
172,13.676103408249006,14.395898324472638,15.11569324069627
173,13.707356495343058,14.42879631088743,15.150236126431802
174,13.738303315587364,14.461371911144594,15.184440506701824
175,13.768948911422147,14.493630433075944,15.218311954729742
176,13.799298138971727,14.525576988391292,15.251855837810856
177,13.829355672618806,14.557216497493481,15.285077322368156
178,13.859126009578645,14.588553694293312,15.317981379007978
179,13.88861347427917,14.61959313082018,15.35057278736119
180,13.917822222677373,14.650339181765656,15.382856140853939
181,13.946756246618607,14.68079604907222,15.414835851525831
182,13.97541937782637,14.710967766133022,15.446516154439674
183,14.003815292149397,14.740858202262524,15.477901112375651
184,14.031947513408065,14.770471066745332,15.508994620082598
185,14.059819417440513,14.799809913095277,15.539800408750041
186,14.08743423577898,14.828878142925243,15.570322050071505
187,14.114795059469033,14.857679009967404,15.600562960465775
188,14.141904842729138,14.886215623925409,15.63052640512168
189,14.168766406513575,14.914490954224815,15.660215501936056
190,14.195382441994651,14.942507833678581,15.689633225362511
191,14.221755514027354,14.970268962134057,15.71878241024076
192,14.247888064437811,14.997776909934538,15.747665755431266
193,14.273782415363549,15.025034121435315,15.776285827507081
194,14.29944077242227,15.052042918339232,15.804645064256194
195,14.324865227785654,15.07880550293227,15.832745778078884
196,14.350057763330927,15.105323961400977,15.860590159471027
197,14.37502025359303,15.131600266940033,15.888180280287036
198,14.399754468670025,15.157636282810554,15.915518096951082
199,14.424262077101718,15.18343376537023,15.942605453638743
200,14.448544648641683,15.208994366991245,15.969444085340808
201,14.472603656991605,15.234319638938533,15.996035620885461
202,14.496440482493934,15.259411034204142,16.02238158591435
203,14.520056414681989,15.284269910191568,16.04848340570115
204,14.54345265493294,15.308897531508359,16.074342408083776
205,14.566630318799286,15.3332950724203,16.099959826041317
206,14.589590438594577,15.35746361957324,16.125336800551903
207,14.612333965665243,15.381404174384468,16.150474383103692
208,14.634861772793236,15.405117655571829,16.17537353835042
209,14.657174656395332,15.428604901468772,16.20003514654221
210,14.679273338793738,15.451866672414463,16.224460006035187
211,14.701158470379134,15.474903653030669,16.248648835682204
212,14.722830631691373,15.497716454411972,16.27260227713257
213,14.744290335570858,15.520305616390377,16.296320897209895
214,14.765538029103526,15.54267160958266,16.319805190061793
215,14.786574095636585,15.564814837512195,16.343055579387805
216,14.807398856715215,15.586735638647596,16.366072420579975
217,14.828012573978013,15.608434288397909,16.388856002817803
218,14.848415450999813,15.629911001052434,16.411406551105056
219,14.86860763511436,15.651165931699326,16.433724228284294
220,14.888589219134692,15.672199178036518,16.455809136938345
221,14.908360243185774,15.693010782300815,16.477661321415855
222,14.927920696242149,15.713600732886473,16.4992807695308
223,14.947270517967473,15.733968966281552,16.52066741459563
224,14.96640960015266,15.754115368581749,16.541821137010835
225,14.985337788428676,15.774039777293344,16.562741766158013
226,15.004054883734282,15.793741982878192,16.583429082022104
227,15.022560643898494,15.813221730419468,16.60388281694044
228,15.040854785062418,15.832478721118335,16.62410265717425
229,15.05893698312855,15.851512613819528,16.644088244510506
230,15.07680687523017,15.870323026558076,16.66383917788598
231,15.094464061065231,15.888909537963402,16.683355014861572
232,15.111908104277937,15.90727168871362,16.7026352731493
233,15.129138533829348,15.925408982978261,16.721679432127175
234,15.146154845193774,15.943320889677658,16.74048693416154
235,15.162956501672722,15.961006843866024,16.759057186059326
236,15.179542935736404,15.978466248143583,16.777389560550763
237,15.195913550098078,15.995698473787451,16.795483397476826
238,15.212067718979629,16.01270286208382,16.81333800518801
239,15.22800478931223,16.029478725591822,16.830952661871414
240,15.243724081791308,16.04602534925401,16.84832661671671
241,15.259224892084864,16.06234199166828,16.865459091251694
242,15.27450649188898,16.078427886198927,16.882349280508873
243,15.289568129968009,16.09428224207159,16.898996354175168
244,15.304409033287182,16.109904245565456,16.91539945784373
245,15.319028407975171,16.125293061026497,16.931557714077822
246,15.33342544040605,16.14044783200637,16.94747022360669
247,15.34759929810786,16.155367682218802,16.963136066329742
248,15.361549130769669,16.17005171659965,16.978554302429636
249,15.375274071219646,16.18449902233647,16.993723973453296
250,15.388773236277004,16.198708669765267,17.00864410325353
251,15.40204572777694,16.21267971344941,17.023313699121882
252,15.415090633361917,16.226411193012545,17.037731752663174
253,15.42790702741201,16.239902134117905,17.051897240823802
254,15.440493971935101,16.25315154940537,17.06580912687564
255,15.452850517289878,16.266158439252504,17.07946636121513
256,15.464975703154435,16.278921792794144,17.09286788243385
257,15.476868559271587,16.291440588706934,17.10601261814228
258,15.488528106175105,16.303713795973795,17.118899485772484
259,15.499953356100532,16.315740374842665,17.1315273935848
260,15.51114331367718,16.327519277554927,17.143895241432674
261,15.522096976689495,16.339049449146838,17.15600192160418
262,15.5328133367178,16.350329828124,17.167846319530202
263,15.54329138012246,16.361359347497327,17.179427314872193
264,15.553530088389657,16.372136935147008,17.19074378190436
265,15.563528439141237,16.382661514885513,17.201794590629788
266,15.573285406621162,16.392932006969644,17.21257860731813
267,15.582799962420811,16.402947328864013,17.223094695307214
268,15.592071076164373,16.4127063959625,17.233341715760623
269,15.601097716084583,16.4222081221943,17.243318528304016
270,15.609878849741472,16.431451420780498,17.253023991819525
271,15.618413444516525,16.440435204754237,17.26245696499195
272,15.626700468333285,16.449158387719248,17.271616307105212
273,15.634738890230517,16.457619884453177,17.280500878675838
274,15.642527680854815,16.465818611426123,17.28910954199743
275,15.650065813158964,16.473753487535753,17.29744116191254
276,15.657352262833184,16.481423434561247,17.30549460628931
277,15.664386008997232,16.488827377891823,17.313268746786417
278,15.671166034602178,16.49596424694966,17.320762459297146
279,15.677691327076468,16.502832975869968,17.327974624663465
280,15.68396087876108,16.509432503959033,17.334904129156985
281,15.68997368748211,16.51576177629696,17.34154986511181
282,15.695728756959085,16.52181974416746,17.347910731375833
283,15.70122509742446,16.52760536570996,17.353985633995457
284,15.706461725979835,16.533117606294564,17.359773486609292
285,15.711437667159021,16.53835543911476,17.365273211070498
286,15.716151953342445,16.543317845623626,17.37048373790481
287,15.720603625217901,16.548003816018845,17.37540400681979
288,15.724791732215571,16.552412349700603,17.380032967185635
289,15.728715332974813,16.556542455762962,17.384369578551112
290,15.73237349573758,16.56039315340798,17.38841281107838
291,15.735765298820716,16.56396347244286,17.392161646065006
292,15.738889830938362,16.56725245361933,17.395615076300295
293,15.741746191672979,16.570259149129452,17.398772106585927
294,15.744333491874567,16.57298262302586,17.401631754177156
295,15.746650853983697,16.575421951561786,17.404193049139877
296,15.748697412488477,16.577576223672082,17.406455034855686
297,15.750472314212425,16.57944454127624,17.40841676834005
298,15.7519747187463,16.58102601973295,17.410077320719598
299,15.753203798776617,16.582319788185913,17.41143577759521
300,15.754158740440403,16.583324989937267,17.412491239434132